nodenumber,    x-coordinate,    y-coordinate,    z-coordinate,  total-pressure
         1, 4.914900059E-03, 9.868704101E-13, 2.848311178E-02, 1.000377562E+07
         2, 4.914182617E-03, 6.519803216E-05, 2.848311238E-02, 1.000372778E+07
         3, 4.912939360E-03, 1.303881562E-04, 2.848311238E-02, 1.000360581E+07
         4, 4.910794334E-03, 1.955548416E-04, 2.848311238E-02, 1.000340874E+07
         5, 4.907605529E-03, 2.606787965E-04, 2.848311238E-02, 1.000315868E+07
         6, 4.903894535E-03, 3.257750830E-04, 2.848311238E-02, 1.000286721E+07
         7, 4.898927311E-03, 3.907875794E-04, 2.848311238E-02, 1.000254922E+07
         8, 4.893182877E-03, 4.557360162E-04, 2.848311237E-02, 1.000228173E+07
         9, 4.877519222E-03, 5.999998769E-04, 2.848311238E-02, 1.000193660E+07
        10, 4.857642270E-03, 7.437438111E-04, 2.848311238E-02, 1.000219509E+07
        11, 4.833572115E-03, 8.868453123E-04, 2.848311238E-02, 1.000307529E+07
        12, 4.805486510E-03, 1.029213184E-03, 2.848311238E-02, 1.000453346E+07
        13, 4.773198938E-03, 1.170687296E-03, 2.848311238E-02, 1.000545635E+07
        14, 4.736704256E-03, 1.311134969E-03, 2.848311238E-02, 1.000307605E+07
        15, 4.695319132E-03, 1.450220133E-03, 2.848311238E-02, 9.998227260E+06
        16, 4.650625024E-03, 1.588277544E-03, 2.848311238E-02, 9.994990328E+06
        17, 4.601984990E-03, 1.724994624E-03, 2.848311238E-02, 9.995914199E+06
        18, 4.548868003E-03, 1.860035359E-03, 2.848311238E-02, 1.000184956E+07
        19, 4.491693849E-03, 1.993408996E-03, 2.848311238E-02, 1.001260501E+07
        20, 4.430759290E-03, 2.125107099E-03, 2.848311238E-02, 1.002994020E+07
        21, 4.366095668E-03, 2.255014863E-03, 2.848311237E-02, 1.004908381E+07
        22, 4.338623040E-03, 2.308118445E-03, 2.848311238E-02, 1.005583883E+07
        23, 4.310229040E-03, 2.360735138E-03, 2.848311238E-02, 1.006044495E+07
        24, 4.280974708E-03, 2.412878400E-03, 2.848311238E-02, 1.006313528E+07
        25, 4.251720376E-03, 2.465021662E-03, 2.848311238E-02, 1.006370766E+07
        26, 4.221173288E-03, 2.516418267E-03, 2.848311238E-02, 1.006257943E+07
        27, 4.190172006E-03, 2.567542197E-03, 2.848311238E-02, 1.005955211E+07
        28, 4.159170725E-03, 2.618666127E-03, 2.848311237E-02, 1.005480469E+07
        29, 4.126649488E-03, 2.668488340E-03, 2.848311238E-02, 1.004849732E+07
        30, 4.094106039E-03, 2.718296046E-03, 2.848311238E-02, 1.004097664E+07
        31, 4.061152799E-03, 2.767833583E-03, 2.848311238E-02, 1.003275084E+07
        32, 4.026979682E-03, 2.816537605E-03, 2.848311238E-02, 1.002454222E+07
        33, 3.992806565E-03, 2.865241628E-03, 2.848311238E-02, 1.001677933E+07
        34, 3.957781052E-03, 2.913336296E-03, 2.848311238E-02, 1.001013339E+07
        35, 3.922038282E-03, 2.960900338E-03, 2.848311237E-02, 1.000498791E+07
        36, 3.845670236E-03, 3.059482480E-03, 2.848311238E-02, 9.997975554E+06
        37, 3.767000888E-03, 3.156238103E-03, 2.848311238E-02, 9.994366754E+06
        38, 3.685869593E-03, 3.250938847E-03, 2.848311238E-02, 9.995208676E+06
        39, 3.601978248E-03, 3.343203469E-03, 2.848311238E-02, 9.998853436E+06
        40, 3.515915910E-03, 3.433446428E-03, 2.848311238E-02, 1.000319254E+07
        41, 3.427700783E-03, 3.521586138E-03, 2.848311238E-02, 1.000546498E+07
        42, 3.337499914E-03, 3.607692585E-03, 2.848311238E-02, 1.000482742E+07
        43, 3.244931682E-03, 3.691248798E-03, 2.848311238E-02, 1.000341977E+07
        44, 3.149836708E-03, 3.771917649E-03, 2.848311238E-02, 1.000230660E+07
        45, 3.053366028E-03, 3.850936161E-03, 2.848311238E-02, 1.000149755E+07
        46, 2.954683343E-03, 3.927174244E-03, 2.848311238E-02, 1.000139878E+07
        47, 2.854116691E-03, 4.000909351E-03, 2.848311238E-02, 1.000182691E+07
        48, 2.751735348E-03, 4.072103297E-03, 2.848311237E-02, 1.000249778E+07
        49, 2.710386853E-03, 4.099523917E-03, 2.848311238E-02, 1.000281116E+07
        50, 2.668701340E-03, 4.126429425E-03, 2.848311238E-02, 1.000314350E+07
        51, 2.627015827E-03, 4.153334934E-03, 2.848311238E-02, 1.000347588E+07
        52, 2.585110857E-03, 4.179897348E-03, 2.848311238E-02, 1.000377360E+07
        53, 2.542557258E-03, 4.205407730E-03, 2.848311238E-02, 1.000402357E+07
        54, 2.500003659E-03, 4.230918112E-03, 2.848311238E-02, 1.000419301E+07
        55, 2.457450030E-03, 4.256428444E-03, 2.848311178E-02, 1.000425412E+07
        56, 4.859175843E-03, 6.177665494E-21, 2.850164640E-02, 1.000271803E+07
        57, 4.858490284E-03, 6.444542944E-05, 2.850193506E-02, 1.000269112E+07
        58, 4.857213452E-03, 1.288827861E-04, 2.850196817E-02, 1.000261182E+07
        59, 4.855095180E-03, 1.932984960E-04, 2.850208344E-02, 1.000246586E+07
        60, 4.851896987E-03, 2.576694316E-04, 2.850197365E-02, 1.000227322E+07
        61, 4.848249099E-03, 3.220156593E-04, 2.850202080E-02, 1.000204547E+07
        62, 4.843392374E-03, 3.862811309E-04, 2.850207376E-02, 1.000179138E+07
        63, 4.837749878E-03, 4.504814555E-04, 2.850200925E-02, 1.000156413E+07
        64, 2.429634725E-03, 4.208250788E-03, 2.850200333E-02, 1.000329636E+07
        65, 4.821313371E-03, 5.928890601E-04, 2.850241914E-02, 1.000123339E+07
        66, 4.801071333E-03, 7.348576578E-04, 2.850279158E-02, 1.000139314E+07
        67, 4.776952257E-03, 8.762495645E-04, 2.850314821E-02, 1.000225482E+07
        68, 4.748912679E-03, 1.016923763E-03, 2.850312817E-02, 1.000385171E+07
        69, 4.716854289E-03, 1.156750624E-03, 2.850315200E-02, 1.000541264E+07
        70, 4.680731572E-03, 1.295585156E-03, 2.850323338E-02, 1.000402274E+07
        71, 4.639945514E-03, 1.433121517E-03, 2.850359267E-02, 9.999209165E+06
        72, 4.595836621E-03, 1.569619627E-03, 2.850374184E-02, 9.994874134E+06
        73, 4.317037902E-03, 2.229637590E-03, 2.850365254E-02, 1.005218543E+07
        74, 4.547875717E-03, 1.704816758E-03, 2.850379748E-02, 9.994690669E+06
        75, 4.495600207E-03, 1.838393704E-03, 2.850380197E-02, 1.000041127E+07
        76, 4.289781096E-03, 2.282011422E-03, 2.850370577E-02, 1.005999192E+07
        77, 4.439510276E-03, 1.970382313E-03, 2.850384746E-02, 1.001183579E+07
        78, 4.379934958E-03, 2.100813583E-03, 2.850381604E-02, 1.003084319E+07
        79, 4.261748658E-03, 2.334063905E-03, 2.850394859E-02, 1.006519259E+07
        80, 4.232807056E-03, 2.385632617E-03, 2.850395171E-02, 1.006827819E+07
        81, 4.203867014E-03, 2.437196407E-03, 2.850395471E-02, 1.006896629E+07
        82, 4.173763907E-03, 2.488086422E-03, 2.850419078E-02, 1.006762435E+07
        83, 4.143147052E-03, 2.538669218E-03, 2.850417219E-02, 1.006414022E+07
        84, 4.112693504E-03, 2.589209941E-03, 2.850410817E-02, 1.005873457E+07
        85, 4.080531144E-03, 2.638339753E-03, 2.850444218E-02, 1.005151886E+07
        86, 4.048283024E-03, 2.687585451E-03, 2.850446554E-02, 1.004296919E+07
        87, 4.015699233E-03, 2.736621069E-03, 2.850464219E-02, 1.003366729E+07
        88, 3.981920867E-03, 2.784836212E-03, 2.850476112E-02, 1.002447979E+07
        89, 3.948100964E-03, 2.833024030E-03, 2.850476332E-02, 1.001592918E+07
        90, 3.913575418E-03, 2.880689565E-03, 2.850504365E-02, 1.000875451E+07
        91, 3.878499652E-03, 2.927737128E-03, 2.850495429E-02, 1.000334496E+07
        92, 3.802439704E-03, 3.024757989E-03, 2.850560294E-02, 9.996404866E+06
        93, 3.724367657E-03, 3.120190010E-03, 2.850605442E-02, 9.993473274E+06
        94, 3.643929345E-03, 3.213696434E-03, 2.850624113E-02, 9.995533059E+06
        95, 2.472487313E-03, 4.184397285E-03, 2.850637324E-02, 1.000330813E+07
        96, 3.560965486E-03, 3.304938741E-03, 2.850661962E-02, 1.000004399E+07
        97, 3.475881923E-03, 3.394261869E-03, 2.850697303E-02, 1.000430414E+07
        98, 3.388707932E-03, 3.481546084E-03, 2.850732362E-02, 1.000564943E+07
        99, 3.299569889E-03, 3.566793495E-03, 2.850758751E-02, 1.000432041E+07
       100, 3.208091961E-03, 3.649547267E-03, 2.850773143E-02, 1.000271675E+07
       101, 2.514878085E-03, 4.159625544E-03, 2.850769417E-02, 1.000328536E+07
       102, 2.557084861E-03, 4.134466290E-03, 2.850791867E-02, 1.000318140E+07
       103, 3.114251370E-03, 3.729609277E-03, 2.850814909E-02, 1.000163174E+07
       104, 3.018997312E-03, 3.807941907E-03, 2.850822015E-02, 1.000109539E+07
       105, 2.722052631E-03, 4.028325614E-03, 2.850817599E-02, 1.000228238E+07
       106, 2.921675816E-03, 3.883697978E-03, 2.850834617E-02, 1.000121094E+07
       107, 2.681254416E-03, 4.055119675E-03, 2.850826343E-02, 1.000254174E+07
       108, 2.598694082E-03, 4.108345770E-03, 2.850829007E-02, 1.000301563E+07
       109, 2.822612239E-03, 3.957134302E-03, 2.850841318E-02, 1.000168986E+07
       110, 2.640028346E-03, 4.081810576E-03, 2.850845131E-02, 1.000279212E+07
       111, 4.803451432E-03, 1.235533376E-20, 2.852018044E-02, 1.000197779E+07
       112, 4.802845703E-03, 6.369276513E-05, 2.852090059E-02, 1.000196804E+07
       113, 4.801531496E-03, 1.273772366E-04, 2.852095476E-02, 1.000191996E+07
       114, 2.401819268E-03, 4.160073003E-03, 2.852089433E-02, 1.000249720E+07
       115, 4.799410792E-03, 1.910408171E-04, 2.852109784E-02, 1.000181123E+07
       116, 4.796242703E-03, 2.546602538E-04, 2.852099507E-02, 1.000166095E+07
       117, 4.792642365E-03, 3.182551468E-04, 2.852104268E-02, 1.000147619E+07
       118, 4.787886257E-03, 3.817721844E-04, 2.852111903E-02, 1.000126852E+07
       119, 4.782363066E-03, 4.452251110E-04, 2.852104069E-02, 1.000106661E+07
       120, 4.765148524E-03, 5.857750271E-04, 2.852184447E-02, 1.000071544E+07
       121, 4.744515797E-03, 7.259638031E-04, 2.852251377E-02, 1.000071273E+07
       122, 4.720274356E-03, 8.656319755E-04, 2.852301154E-02, 1.000146040E+07
       123, 4.692349257E-03, 1.004624388E-03, 2.852316947E-02, 1.000305226E+07
       124, 4.660565929E-03, 1.142814968E-03, 2.852334881E-02, 1.000512012E+07
       125, 4.624838716E-03, 1.280044802E-03, 2.852357802E-02, 1.000496389E+07
       126, 4.584575493E-03, 1.416011602E-03, 2.852407429E-02, 1.000060732E+07
       127, 4.267940202E-03, 2.204236987E-03, 2.852406811E-02, 1.005188971E+07
       128, 4.240891854E-03, 2.255895522E-03, 2.852415711E-02, 1.006023187E+07
       129, 4.541052076E-03, 1.550951188E-03, 2.852437198E-02, 9.995198789E+06
       130, 4.493735171E-03, 1.684617141E-03, 2.852437767E-02, 9.993492038E+06
       131, 4.442322063E-03, 1.816739760E-03, 2.852444459E-02, 9.998423626E+06
       132, 4.387306399E-03, 1.947340992E-03, 2.852450428E-02, 1.000981515E+07
       133, 4.329083788E-03, 2.076499948E-03, 2.852441475E-02, 1.002940403E+07
       134, 4.213174871E-03, 2.307344177E-03, 2.852449715E-02, 1.006578904E+07
       135, 4.184582793E-03, 2.358358379E-03, 2.852461466E-02, 1.006907347E+07
       136, 4.155951574E-03, 2.409340558E-03, 2.852460820E-02, 1.006976827E+07
       137, 4.066129738E-03, 2.559704753E-03, 2.852487589E-02, 1.005833259E+07
       138, 4.126278022E-03, 2.459715625E-03, 2.852504600E-02, 1.006816281E+07
       139, 4.096054971E-03, 2.509741728E-03, 2.852501000E-02, 1.006424525E+07
       140, 4.034311203E-03, 2.608159774E-03, 2.852551528E-02, 1.005042263E+07
       141, 4.002364199E-03, 2.656824773E-03, 2.852554696E-02, 1.004123335E+07
       142, 3.970088324E-03, 2.705316839E-03, 2.852571910E-02, 1.003137767E+07
       143, 3.936752525E-03, 2.753074872E-03, 2.852610007E-02, 1.002183526E+07
       144, 3.903282055E-03, 2.800744308E-03, 2.852609042E-02, 1.001316677E+07
       145, 3.869192057E-03, 2.847889987E-03, 2.852639260E-02, 1.000600643E+07
       146, 3.834828241E-03, 2.894487310E-03, 2.852644644E-02, 1.000081230E+07
       147, 2.444340051E-03, 4.136846491E-03, 2.852658293E-02, 1.000255883E+07
       148, 3.759044655E-03, 2.989917073E-03, 2.852768019E-02, 9.994580774E+06
       149, 3.681476888E-03, 3.083902239E-03, 2.852830830E-02, 9.992970168E+06
       150, 3.601798174E-03, 3.176243055E-03, 2.852891639E-02, 9.996447451E+06
       151, 2.486430666E-03, 4.112600440E-03, 2.852899575E-02, 1.000265202E+07
       152, 3.519744454E-03, 3.266421408E-03, 2.852965894E-02, 1.000158080E+07
       153, 3.435618201E-03, 3.354779033E-03, 2.853033793E-02, 1.000536107E+07
       154, 2.528366392E-03, 4.087959236E-03, 2.853027525E-02, 1.000268276E+07
       155, 3.349428224E-03, 3.441125915E-03, 2.853089439E-02, 1.000554432E+07
       156, 3.261280323E-03, 3.525412672E-03, 2.853121554E-02, 1.000367445E+07
       157, 2.569653247E-03, 4.062236944E-03, 2.853116312E-02, 1.000264116E+07
       158, 3.170930629E-03, 3.607382210E-03, 2.853166078E-02, 1.000204762E+07
       159, 2.610631666E-03, 4.036028446E-03, 2.853157897E-02, 1.000252805E+07
       160, 2.691732191E-03, 3.983535803E-03, 2.853170523E-02, 1.000217003E+07
       161, 2.651523639E-03, 4.009750164E-03, 2.853181528E-02, 1.000236776E+07
       162, 3.078256070E-03, 3.686709935E-03, 2.853224521E-02, 1.000109027E+07
       163, 2.984245775E-03, 3.764364943E-03, 2.853250798E-02, 1.000087804E+07
       164, 2.790614428E-03, 3.912568043E-03, 2.853254017E-02, 1.000165598E+07
       165, 2.888254901E-03, 3.839579132E-03, 2.853269128E-02, 1.000116118E+07
       166, 4.747727020E-03, 1.853300203E-20, 2.853871448E-02, 1.000153193E+07
       167, 4.747138781E-03, 6.293746852E-05, 2.853968144E-02, 1.000152905E+07
       168, 4.745781880E-03, 1.258666717E-04, 2.853974271E-02, 1.000149683E+07
       169, 4.743654573E-03, 1.887758404E-04, 2.853990285E-02, 1.000141183E+07
       170, 4.740514310E-03, 2.516418712E-04, 2.853979998E-02, 1.000129076E+07
       171, 4.736957128E-03, 3.144836098E-04, 2.853983483E-02, 1.000113620E+07
       172, 2.374003811E-03, 4.111895219E-03, 2.853978532E-02, 1.000189199E+07
       173, 4.732300092E-03, 3.772507895E-04, 2.853992954E-02, 1.000095887E+07
       174, 4.726893648E-03, 4.399551070E-04, 2.853982754E-02, 1.000077245E+07
       175, 4.708884464E-03, 5.786419617E-04, 2.854097343E-02, 1.000039383E+07
       176, 4.687846215E-03, 7.170450001E-04, 2.854189475E-02, 1.000022344E+07
       177, 4.663469886E-03, 8.549834949E-04, 2.854249338E-02, 1.000075779E+07
       178, 4.635649671E-03, 9.922880723E-04, 2.854279666E-02, 1.000217745E+07
       179, 4.604132854E-03, 1.128836149E-03, 2.854310356E-02, 1.000451494E+07
       180, 4.568792366E-03, 1.264454660E-03, 2.854345261E-02, 1.000561125E+07
       181, 4.529040197E-03, 1.398844039E-03, 2.854405043E-02, 1.000226979E+07
       182, 4.218715379E-03, 2.178771293E-03, 2.854410053E-02, 1.004743068E+07
       183, 4.191884522E-03, 2.229737125E-03, 2.854423738E-02, 1.005573885E+07
       184, 4.486063530E-03, 1.532207839E-03, 2.854438106E-02, 9.996274836E+06
       185, 4.439424307E-03, 1.664349625E-03, 2.854443051E-02, 9.992805542E+06
       186, 4.388886101E-03, 1.795018687E-03, 2.854459437E-02, 9.996110585E+06
       187, 4.334957725E-03, 1.924234650E-03, 2.854470500E-02, 1.000653480E+07
       188, 4.278103102E-03, 2.052120366E-03, 2.854459381E-02, 1.002536774E+07
       189, 4.164462549E-03, 2.280556412E-03, 2.854459113E-02, 1.006134806E+07
       190, 4.136260981E-03, 2.331037639E-03, 2.854494167E-02, 1.006458687E+07
       191, 4.107946057E-03, 2.381443085E-03, 2.854494112E-02, 1.006516244E+07
       192, 4.078630443E-03, 2.431261871E-03, 2.854536593E-02, 1.006337958E+07
       193, 4.019485567E-03, 2.530159804E-03, 2.854537649E-02, 1.005309079E+07
       194, 4.048896570E-03, 2.480764150E-03, 2.854556083E-02, 1.005920076E+07
       195, 2.416006845E-03, 4.088918171E-03, 2.854564186E-02, 1.000195805E+07
       196, 3.987958379E-03, 2.577940049E-03, 2.854617523E-02, 1.004491831E+07
       197, 3.956372635E-03, 2.626034176E-03, 2.854636493E-02, 1.003570537E+07
       198, 3.924398427E-03, 2.673979434E-03, 2.854651913E-02, 1.002607693E+07
       199, 3.891479462E-03, 2.721262685E-03, 2.854709813E-02, 1.001693898E+07
       200, 3.858367618E-03, 2.768420375E-03, 2.854710743E-02, 1.000886498E+07
       201, 3.824710613E-03, 2.814997971E-03, 2.854735882E-02, 1.000232629E+07
       202, 3.791032039E-03, 2.861163127E-03, 2.854760661E-02, 9.997774719E+06
       203, 3.715425746E-03, 2.954944274E-03, 2.854906430E-02, 9.992900208E+06
       204, 2.457747881E-03, 4.065185196E-03, 2.854908015E-02, 1.000208049E+07
       205, 3.638466388E-03, 3.047531077E-03, 2.855012480E-02, 9.993137687E+06
       206, 3.559538791E-03, 3.138693933E-03, 2.855110774E-02, 9.997994663E+06
       207, 2.499318259E-03, 4.040955262E-03, 2.855106422E-02, 1.000217309E+07
       208, 3.478392352E-03, 3.227802011E-03, 2.855218754E-02, 1.000325685E+07
       209, 2.540245799E-03, 4.015615685E-03, 2.855237664E-02, 1.000220854E+07
       210, 3.395164796E-03, 3.315136579E-03, 2.855298313E-02, 1.000607748E+07
       211, 2.580913460E-03, 3.989865533E-03, 2.855334875E-02, 1.000217442E+07
       212, 3.309924971E-03, 3.400510498E-03, 2.855360977E-02, 1.000508328E+07
       213, 2.661025272E-03, 3.938374875E-03, 2.855379623E-02, 1.000194908E+07
       214, 2.621402459E-03, 3.963964849E-03, 2.855379744E-02, 1.000208627E+07
       215, 3.222841263E-03, 3.483913636E-03, 2.855421656E-02, 1.000290464E+07
       216, 3.133571398E-03, 3.565051244E-03, 2.855479744E-02, 1.000139737E+07
       217, 2.758260249E-03, 3.867641078E-03, 2.855522254E-02, 1.000151355E+07
       218, 3.042074171E-03, 3.643663868E-03, 2.855558562E-02, 1.000062709E+07
       219, 2.949243060E-03, 3.720570357E-03, 2.855581036E-02, 1.000065894E+07
       220, 2.854497775E-03, 3.795141073E-03, 2.855572898E-02, 1.000102965E+07
       221, 4.692002608E-03, 2.471067030E-20, 2.855724851E-02, 1.000127888E+07
       222, 4.691302410E-03, 6.217797139E-05, 2.855807116E-02, 1.000127312E+07
       223, 4.689908492E-03, 1.243479823E-04, 2.855815488E-02, 1.000124431E+07
       224, 2.346097558E-03, 4.063560170E-03, 2.855813287E-02, 1.000147771E+07
       225, 4.687778494E-03, 1.864987678E-04, 2.855834195E-02, 1.000117519E+07
       226, 4.684667739E-03, 2.486079386E-04, 2.855824305E-02, 1.000107461E+07
       227, 4.681161616E-03, 3.106939215E-04, 2.855828746E-02, 1.000094389E+07
       228, 4.676606532E-03, 3.727087705E-04, 2.855840792E-02, 1.000078969E+07
       229, 4.671319708E-03, 4.346625729E-04, 2.855829036E-02, 1.000061575E+07
       230, 4.652533425E-03, 5.714860948E-04, 2.855982820E-02, 1.000021491E+07
       231, 4.631106235E-03, 7.081038739E-04, 2.856104801E-02, 9.999904865E+06
       232, 4.606610951E-03, 8.443140298E-04, 2.856179016E-02, 1.000015755E+07
       233, 4.578908520E-03, 9.799321534E-04, 2.856227499E-02, 1.000132301E+07
       234, 4.547669033E-03, 1.114839336E-03, 2.856273885E-02, 1.000368587E+07
       235, 4.512726394E-03, 1.248849016E-03, 2.856323749E-02, 1.000573909E+07
       236, 4.473499787E-03, 1.381664964E-03, 2.856397544E-02, 1.000385822E+07
       237, 4.169416846E-03, 2.153256523E-03, 2.856387570E-02, 1.003921699E+07
       238, 4.142800315E-03, 2.203547212E-03, 2.856404809E-02, 1.004684871E+07
       239, 4.431059970E-03, 1.513449666E-03, 2.856430263E-02, 9.998038019E+06
       240, 4.385122145E-03, 1.644075549E-03, 2.856446230E-02, 9.992863936E+06
       241, 4.115665304E-03, 2.253717648E-03, 2.856437788E-02, 1.005214704E+07
       242, 2.387618104E-03, 4.040901821E-03, 2.856440349E-02, 1.000153734E+07
       243, 4.335439378E-03, 1.773283943E-03, 2.856466081E-02, 9.993852541E+06
       244, 4.227077965E-03, 2.027706306E-03, 2.856457525E-02, 1.001911555E+07
       245, 4.282580293E-03, 1.901106545E-03, 2.856476381E-02, 1.000236117E+07
       246, 4.087840197E-03, 2.303656449E-03, 2.856493147E-02, 1.005520640E+07
       247, 4.059829995E-03, 2.353478811E-03, 2.856490850E-02, 1.005563569E+07
       248, 4.030859241E-03, 2.402734202E-03, 2.856528645E-02, 1.005373420E+07
       249, 3.972688262E-03, 2.500514430E-03, 2.856542860E-02, 1.004364458E+07
       250, 4.001611384E-03, 2.451685623E-03, 2.856568283E-02, 1.004952935E+07
       251, 3.941402591E-03, 2.547616418E-03, 2.856623553E-02, 1.003580190E+07
       252, 3.910240368E-03, 2.595133139E-03, 2.856671384E-02, 1.002732014E+07
